# Frequency (cm-1), IR Intensity (km/mol), Raman Intensity (A2/amu)
6.322083400000000353e+01,8.343383352916274032e-02,8.992092813928181938e-02
6.359101726836684065e+01,8.378403955429014616e-02,9.146217181370003280e-02
6.396120053673367778e+01,8.410824964363236567e-02,9.306185738636513216e-02
6.433138380510051491e+01,8.440946612693564499e-02,9.472314683699417648e-02
6.470156707346734493e+01,8.469214400759098038e-02,9.644942293098120178e-02
6.507175034183418916e+01,8.496159588429509635e-02,9.824430802219426273e-02
6.544193361020101918e+01,8.522337750718242400e-02,1.001116847331493392e-01
6.581211687856786341e+01,8.548276958996171848e-02,1.020557187256884990e-01
6.618230014693469343e+01,8.574441959951478731e-02,1.040808838020653299e-01
6.655248341530153766e+01,8.601215388655740479e-02,1.061919896067491098e-01
6.692266668366836768e+01,8.628893322438611901e-02,1.083942122338039799e-01
6.729284995203521191e+01,8.657690829798692089e-02,1.106931280839471288e-01
6.766303322040204193e+01,8.687753158028233003e-02,1.130947513600273485e-01
6.803321648876888617e+01,8.719169089776356019e-02,1.156055756404022472e-01
6.840339975713571619e+01,8.751984144879317029e-02,1.182326200273901146e-01
6.877358302550254621e+01,8.786212328869774657e-02,1.209834804335594843e-01
6.914376629386939044e+01,8.821845883940643285e-02,1.238663866431256033e-01
6.951394956223622046e+01,8.858862975590038602e-02,1.268902658703050246e-01
6.988413283060306469e+01,8.897233506027561745e-02,1.300648136323599158e-01
7.025431609896989471e+01,8.936923354120648866e-02,1.334005728635601074e-01
7.062449936733673894e+01,8.977897361233683204e-02,1.369090223187698074e-01
7.099468263570356896e+01,9.020121355682232667e-02,1.406026754531466139e-01
7.136486590407041319e+01,9.063563462859632047e-02,1.444951911188049887e-01
7.173504917243724321e+01,9.108194898801942607e-02,1.486014975911887359e-01
7.210523244080408745e+01,9.153990399706160574e-02,1.529379316279128043e-01
7.247541570917091747e+01,9.200928401747970886e-02,1.575223944706809487e-01
7.284559897753776170e+01,9.248991054996703876e-02,1.623745269251579693e-01
7.321578224590459172e+01,9.298164131632845331e-02,1.675159058909394261e-01
7.358596551427143595e+01,9.348436870926064846e-02,1.729702649578415963e-01
7.395614878263826597e+01,9.399801790346537511e-02,1.787637419250958926e-01
7.432633205100509599e+01,9.452254482695357507e-02,1.849251563200549620e-01
7.469651531937194022e+01,9.505793412361157602e-02,1.914863201669908810e-01
7.506669858773877024e+01,9.560419719033148855e-02,1.984823853460227494e-01
7.543688185610561447e+01,9.616137033882603269e-02,2.059522308302131066e-01
7.580706512447244450e+01,9.672951310956409698e-02,2.139388928125418310e-01
7.617724839283928873e+01,9.730870675005431902e-02,2.224900401142507755e-01
7.654743166120611875e+01,9.789905285976079063e-02,2.316584961310464708e-01
7.691761492957296298e+01,9.850067219767168203e-02,2.415028066816331809e-01
7.728779819793979300e+01,9.911370364480236173e-02,2.520878501331269561e-01
7.765798146630663723e+01,9.973830331190233767e-02,2.634854816145230094e-01
7.802816473467346725e+01,1.003746437817690240e-01,2.757751963346624091e-01
7.839834800304029727e+01,1.010229134754515729e-01,2.890447870949778286e-01
7.876853127140714150e+01,1.016833161319902895e-01,3.033909568139949164e-01
7.913871453977398573e+01,1.023560703919640241e-01,3.189198266463796894e-01
7.950889780814081575e+01,1.030414094759210530e-01,3.357472519913290432e-01
7.987908107650764578e+01,1.037395809496170912e-01,3.539988197175932272e-01
8.024926434487449001e+01,1.044508465688658849e-01,3.738093471531493961e-01
8.061944761324132003e+01,1.051754821976512849e-01,3.953216333625557688e-01
8.098963088160816426e+01,1.059137777939651581e-01,4.186841227847455382e-01
8.135981414997499428e+01,1.066660374585860910e-01,4.440470286978497882e-01
8.172999741834183851e+01,1.074325795427175795e-01,4.715563312072740820e-01
8.210018068670866853e+01,1.082137368110408365e-01,5.013449211974492226e-01
8.247036395507551276e+01,1.090098566573295402e-01,5.335200316862205305e-01
8.284054722344234278e+01,1.098213013703004115e-01,5.681460283783758003e-01
8.321073049180918701e+01,1.106484484478692243e-01,6.052217042050831441e-01
8.358091376017601704e+01,1.114916909584199312e-01,6.446515670344108440e-01
8.395109702854284706e+01,1.123514379481086872e-01,6.862114035499884412e-01
8.432128029690969129e+01,1.132281148935967707e-01,7.295098503355750275e-01
8.469146356527653552e+01,1.141221641999577846e-01,7.739499633328428274e-01
8.506164683364336554e+01,1.150340457438296105e-01,8.186978062601462103e-01
8.543183010201019556e+01,1.159642374621887434e-01,8.626683958933699659e-01
8.580201337037703979e+01,1.169132359874167915e-01,9.045417786875490362e-01
8.617219663874386981e+01,1.178815573296073810e-01,9.428216661676640520e-01
8.654237990711071404e+01,1.188697376073380163e-01,9.759437812356293040e-01
8.691256317547754406e+01,1.198783338283912342e-01,1.002429752042870215e+00
8.728274644384438830e+01,1.209079247221811898e-01,1.021066691176278685e+00
8.765292971221121832e+01,1.219591116258992303e-01,1.031077897530966681e+00
8.802311298057806255e+01,1.230325194266628508e-01,1.032244048304433282e+00
8.839329624894489257e+01,1.241287975622233641e-01,1.024942429572116565e+00
8.876347951731173680e+01,1.252486210830673630e-01,1.010093196189557174e+00
8.913366278567856682e+01,1.263926917790359761e-01,9.890278843063210479e-01
8.950384605404539684e+01,1.275617393738902039e-01,9.633150487287154284e-01
8.987402932241224107e+01,1.287565227915632160e-01,9.345835541790684653e-01
9.024421259077908530e+01,1.299778314981788196e-01,9.043760318746900673e-01
9.061439585914591532e+01,1.312264869242666665e-01,8.740496363563525772e-01
9.098457912751274534e+01,1.325033439719796036e-01,8.447259937074641512e-01
9.135476239587958958e+01,1.338092926125253046e-01,8.172819023964630336e-01
9.172494566424641960e+01,1.351452595794452038e-01,7.923680184287513750e-01
9.209512893261326383e+01,1.365122101638453767e-01,7.704430246806266425e-01
9.246531220098009385e+01,1.379111501181707056e-01,7.518134785303047796e-01
9.283549546934693808e+01,1.393431276756554038e-01,7.366728558830120122e-01
9.320567873771376810e+01,1.408092356931557043e-01,7.251362209140012061e-01
9.357586200608059812e+01,1.423106139257007963e-01,7.172690586138829039e-01
9.394604527444744235e+01,1.438484514417677496e-01,7.131101152044133640e-01
9.431622854281428658e+01,1.454239891890274083e-01,7.126887716083569746e-01
9.468641181118111660e+01,1.470385227211036261e-01,7.160377285233886502e-01
9.505659507954794663e+01,1.486934050967530507e-01,7.232017754412385369e-01
9.542677834791479086e+01,1.503900499638218813e-01,7.342432667912095479e-01
9.579696161628163509e+01,1.521299348413590324e-01,7.492447076581980614e-01
9.616714488464846511e+01,1.539146046143960167e-01,7.683085978878361200e-01
9.653732815301529513e+01,1.557456752571207137e-01,7.915544157696285943e-01
9.690751142138213936e+01,1.576248378015183416e-01,8.191123516747155220e-01
9.727769468974898359e+01,1.595538625700151647e-01,8.511131413813300961e-01
9.764787795811579940e+01,1.615346036922682971e-01,8.876731253945318034e-01
9.801806122648264363e+01,1.635690039279996677e-01,9.288735276290484011e-01
9.838824449484948786e+01,1.656590998197035869e-01,9.747329972971934264e-01
9.875842776321631789e+01,1.678070272011753516e-01,1.025172834490718277e+00
9.912861103158314791e+01,1.700150270901366334e-01,1.079975211717809191e+00
9.949879429994999214e+01,1.722854519957864594e-01,1.138736308373822004e+00
9.986897756831683637e+01,1.746207726749342548e-01,1.200818700822494867e+00
1.002391608366836664e+02,1.770235853734677678e-01,1.265310434179782950e+00
1.006093441050504964e+02,1.794966195933336839e-01,1.331001265854001581e+00
1.009795273734173406e+02,1.820427464289937625e-01,1.396388245358959779e+00
1.013497106417841849e+02,1.846649875214833592e-01,1.459721168801929592e+00
1.017198939101510149e+02,1.873665246828280784e-01,1.519091869546749018e+00
1.020900771785178449e+02,1.901507102486805767e-01,1.572559875563514398e+00
1.024602604468846891e+02,1.930210782226971233e-01,1.618293960905929918e+00
1.028304437152515192e+02,1.959813562824627986e-01,1.654700851246567517e+00
1.032006269836183492e+02,1.990354787237459955e-01,1.680515122534744776e+00
1.035708102519851934e+02,2.021876004275972027e-01,1.694839543082051758e+00
1.039409935203520376e+02,2.054421119434443610e-01,1.697146141092254146e+00
1.043111767887188677e+02,2.088036557909150603e-01,1.687263114869028025e+00
1.046813600570856977e+02,2.122771440938190368e-01,1.665371703193578634e+00
1.050515433254525419e+02,2.158677776716491359e-01,1.632020409844743725e+00
1.054217265938193862e+02,2.195810667272901362e-01,1.588142164545031321e+00
1.057919098621862162e+02,2.234228532845073112e-01,1.535047288079108174e+00
1.061620931305530462e+02,2.273993355454695109e-01,1.474369579527222029e+00
1.065322763989198904e+02,2.315170943572181783e-01,1.407961278557115170e+00
1.069024596672867347e+02,2.357831219969415693e-01,1.337753681372123138e+00
1.072726429356535647e+02,2.402048535094110371e-01,1.265612493042257869e+00
1.076428262040203947e+02,2.447902008563374032e-01,1.193216175708826654e+00
1.080130094723872389e+02,2.495475901671151964e-01,1.121974932021422511e+00
1.083831927407540690e+02,2.544860024138420052e-01,1.052994484954032473e+00
1.087533760091208990e+02,2.596150178712034462e-01,9.870782544203160480e-01
1.091235592774877432e+02,2.649448647642853039e-01,9.247562581183446095e-01
1.094937425458545874e+02,2.704864725553781657e-01,8.663285098442345955e-01
1.098639258142214175e+02,2.762515303750469609e-01,8.119129615357827401e-01
1.102341090825882475e+02,2.822525511640510687e-01,7.614912820271282357e-01
1.106042923509550917e+02,2.885029421620758372e-01,7.149487828615826990e-01
1.109744756193219359e+02,2.950170824578325357e-01,6.721070650999967366e-01
1.113446588876887660e+02,3.018104084041073332e-01,6.327494032054652440e-01
1.117148421560555960e+02,3.088995078022815366e-01,5.966396539393482579e-01
1.120850254244224402e+02,3.163022238753351312e-01,5.635357880407813047e-01
1.124552086927892844e+02,3.240377701781708697e-01,5.331991748721043312e-01
1.128253919611561145e+02,3.321268577413980516e-01,5.054006398389517818e-01
1.131955752295229445e+02,3.405918359117343086e-01,4.799241473548362391e-01
1.135657584978897887e+02,3.494568485414755732e-01,4.565687873979024647e-01
1.139359417662566187e+02,3.587480073938785208e-01,4.351495854958285503e-01
1.143061250346234488e+02,3.684935848737435626e-01,4.154975235629002617e-01
1.146763083029902930e+02,3.787242284661543335e-01,3.974590536048420719e-01
1.150464915713571372e+02,3.894731995745367437e-01,3.808953052705624231e-01
1.154166748397239672e+02,4.007766397949967807e-01,3.656811275301016240e-01
1.157868581080907973e+02,4.126738680502468615e-01,3.517040602208674205e-01
1.161570413764576415e+02,4.252077124353955129e-01,3.388632990941779499e-01
1.165272246448244857e+02,4.384248811004577417e-01,3.270686952123191271e-01
1.168974079131913157e+02,4.523763770094174075e-01,3.162398136388819281e-01
1.172675911815581458e+02,4.671179619686321449e-01,3.063050654481611068e-01
1.176377744499249900e+02,4.827106758989471169e-01,2.972009197379456014e-01
1.180079577182918342e+02,4.992214179190835321e-01,2.888711975177113978e-01
1.183781409866586642e+02,5.167235963848644253e-01,2.812664462957599198e-01
1.187483242550254943e+02,5.352978555455771836e-01,2.743433923480222414e-01
1.191185075233923385e+02,5.550328868683382932e-01,2.680644666141760446e-01
1.194886907917591685e+02,5.760263332436685868e-01,2.623973996375560946e-01
1.198588740601259985e+02,5.983857940740492376e-01,2.573148807222457313e-01
1.202290573284928428e+02,6.222299384498336527e-01,2.527942763490142464e-01
1.205992405968596870e+02,6.476897319301181399e-01,2.488174027221546347e-01
1.209694238652265170e+02,6.749097794402288963e-01,2.453703469692991856e-01
1.213396071335933470e+02,7.040497818704952726e-01,2.424433308329793368e-01
1.217097904019601913e+02,7.352860962784031340e-01,2.400306094950136748e-01
1.220799736703270355e+02,7.688133780163527442e-01,2.381303962354222870e-01
1.224501569386938655e+02,8.048462660907490518e-01,2.367448006522140658e-01
1.228203402070606955e+02,8.436210485705827322e-01,2.358797637746827824e-01
1.231905234754275398e+02,8.853972102851668247e-01,2.355449670995560796e-01
1.235607067437943840e+02,9.304587171323026595e-01,2.357536837529322082e-01
1.239308900121611998e+02,9.791148262537692215e-01,2.365225279009600112e-01
1.243010732805280441e+02,1.031700125083005570e+00,2.378710423985943290e-01
1.246712565488948883e+02,1.088573391338479857e+00,2.398210437385631943e-01
1.250414398172617183e+02,1.150114729082322595e+00,2.423956172408152365e-01
1.254116230856285483e+02,1.216720276684833735e+00,2.456176245748939169e-01
1.257818063539953926e+02,1.288793614447673486e+00,2.495075523984371102e-01
1.261519896223622368e+02,1.366732853212404786e+00,2.540805006730704196e-01
1.265221728907290668e+02,1.450912317237197380e+00,2.593420930899100196e-01
1.268923561590958968e+02,1.541657837350575377e+00,2.652831092184640971e-01
1.272625394274627411e+02,1.639215075628017493e+00,2.718727185588628026e-01
1.276327226958295853e+02,1.743711167599189427e+00,2.790503821893845493e-01
1.280029059641964011e+02,1.855111423649744795e+00,2.867168259628972149e-01
1.283730892325632453e+02,1.973174875411709106e+00,2.947250170235088951e-01
1.287432725009300896e+02,2.097414782590298898e+00,3.028727826939199286e-01
1.291134557692969338e+02,2.227072059827932993e+00,3.108994849721132825e-01
1.294836390376637496e+02,2.361109694857538521e+00,3.184897319581331820e-01
1.298538223060305938e+02,2.498233283447947262e+00,3.252870251769851007e-01
1.302240055743974381e+02,2.636936357352970273e+00,3.309190085289783201e-01
1.305941888427642823e+02,2.775560873279213858e+00,3.350333416100955142e-01
1.309643721111310981e+02,2.912357250209745008e+00,3.373395553066926844e-01
1.313345553794979423e+02,3.045529831105841190e+00,3.376488181936325161e-01
1.317047386478647866e+02,3.173264947497998367e+00,3.359021297497951641e-01
1.320749219162316024e+02,3.293755768244996940e+00,3.321793709535361128e-01
1.324451051845984466e+02,3.405250373855949864e+00,3.266866506956815908e-01
1.328152884529652908e+02,3.506145926280060277e+00,3.197255085122696072e-01
1.331854717213321351e+02,3.595129067425006930e+00,3.116521160410210545e-01
1.335556549896989509e+02,3.671330193044042289e+00,3.028359345758791510e-01
1.339258382580657951e+02,3.734435899309398010e+00,2.936254109554063962e-01
1.342960215264326393e+02,3.784706999298382168e+00,2.843247040883232768e-01
1.346662047947994836e+02,3.822882601323876806e+00,2.751818777831044893e-01
1.350363880631662994e+02,3.849999256120934188e+00,2.663865868583749630e-01
1.354065713315331436e+02,3.867193147879985471e+00,2.580742752491404501e-01
1.357767545998999879e+02,3.875562116484409181e+00,2.503339691482566742e-01
1.361469378682668321e+02,3.876138078053847025e+00,2.432173783581157156e-01
1.365171211366336479e+02,3.869971418053395951e+00,2.367477960982235508e-01
1.368873044050004921e+02,3.858279366604489891e+00,2.309279686601335146e-01
1.372574876733673364e+02,3.842581834857099476e+00,2.257466007763723748e-01
1.376276709417341522e+02,3.824752180172588112e+00,2.211834716803749712e-01
1.379978542101009964e+02,3.806943077850002410e+00,2.172133011981279560e-01
1.383680374784678406e+02,3.791392296002599860e+00,2.138085723685318740e-01
1.387382207468346849e+02,3.780149500397291806e+00,2.109415267940903116e-01
1.391084040152015007e+02,3.774780889670535267e+00,2.085855292734312971e-01
1.394785872835683449e+02,3.776104012995741943e+00,2.067159668823463359e-01
1.398487705519351891e+02,3.783990270352453500e+00,2.053108144480090547e-01
1.402189538203020334e+02,3.797258041376542437e+00,2.043509681592595162e-01
1.405891370886688492e+02,3.813670469064730728e+00,2.038204237462740431e-01
1.409593203570356934e+02,3.830047221725789264e+00,2.037063555135830151e-01
1.413295036254025376e+02,3.842493656579141881e+00,2.039991370329730658e-01
1.416996868937693819e+02,3.846738770279130915e+00,2.046923327318364016e-01
1.420698701621361977e+02,3.838554476185795483e+00,2.057826811527958821e-01
1.424400534305030419e+02,3.814207869472079349e+00,2.072700845990412544e-01
1.428102366988698861e+02,3.770883105633656474e+00,2.091576156241956863e-01
1.431804199672367020e+02,3.707006893522327928e+00,2.114515479048180713e-01
1.435506032356035462e+02,3.622423542532257734e+00,2.141614170835156594e-01
1.439207865039703904e+02,3.518389959488362972e+00,2.173001159130134863e-01
1.442909697723372346e+02,3.397393458489346152e+00,2.208840272539425442e-01
1.446611530407040505e+02,3.262829141011927891e+00,2.249331980158237321e-01
1.450313363090708947e+02,3.118600043146189993e+00,2.294715568461274113e-01
1.454015195774377389e+02,2.968713525481561089e+00,2.345271781457897997e-01
1.457717028458045831e+02,2.816938013419308717e+00,2.401325947013563666e-01
1.461418861141713990e+02,2.666559864639616251e+00,2.463251607403883214e-01
1.465120693825382432e+02,2.520251151715681814e+00,2.531474663742352416e-01
1.468822526509050874e+02,2.380035499827356293e+00,2.606478029776829741e-01
1.472524359192719317e+02,2.247326000328657258e+00,2.688806767819928445e-01
1.476226191876387475e+02,2.123006411744828181e+00,2.779073644365353535e-01
1.479928024560055917e+02,2.007530953624709014e+00,2.877964989931836026e-01
1.483629857243724359e+02,1.901025044868398073e+00,2.986246669671150933e-01
1.487331689927392517e+02,1.803376428820235189e+00,3.104769858652616232e-01
1.491033522611060960e+02,1.714311774206494610e+00,3.234476155857725632e-01
1.494735355294729402e+02,1.633457656211603215e+00,3.376401347644084616e-01
1.498437187978397844e+02,1.560387025331149369e+00,3.531676824946823889e-01
1.502139020662066002e+02,1.494653299240533695e+00,3.701527245921698017e-01
1.505840853345734445e+02,1.435814494555012200e+00,3.887262493520418638e-01
1.509542686029402887e+02,1.383449684684445069e+00,4.090261286758093418e-01
1.513244518713071329e+02,1.337169751135045770e+00,4.311942961842913924e-01
1.516946351396739487e+02,1.296624022420403977e+00,4.553722976454665505e-01
1.520648184080407930e+02,1.261504037629702202e+00,4.816946705596336642e-01
1.524350016764076372e+02,1.231545361178010278e+00,5.102795303154306072e-01
1.528051849447744530e+02,1.206528119033146940e+00,5.412157188559189036e-01
1.531753682131412972e+02,1.186276720709244836e+00,5.745459712474038083e-01
1.535455514815081415e+02,1.170659066207702326e+00,6.102458660077713093e-01
1.539157347498749857e+02,1.159585401749906541e+00,6.481989558863459067e-01
1.542859180182418015e+02,1.153006871297906910e+00,6.881695251051569429e-01
1.546561012866086458e+02,1.150913701656639976e+00,7.297759076232687159e-01
1.550262845549754900e+02,1.153332847146093521e+00,7.724690681169950057e-01
1.553964678233423342e+02,1.160324795875067094e+00,8.155227392892819838e-01
1.557666510917091500e+02,1.171979095136411742e+00,8.580420445883404357e-01
1.561368343600759943e+02,1.188407982351534331e+00,8.989962771615358506e-01
1.565070176284428385e+02,1.209737309320871868e+00,9.372777175527881033e-01
1.568772008968096827e+02,1.236093730224498310e+00,9.717823302251968887e-01
1.572473841651764985e+02,1.267586914957348210e+00,1.001501418012630262e+00
1.576175674335433428e+02,1.304285406675014913e+00,1.025608253186975016e+00
1.579877507019101870e+02,1.346184770751008841e+00,1.043522569943173606e+00
1.583579339702770028e+02,1.393167051410934665e+00,1.054939556699857839e+00
1.587281172386438470e+02,1.444951505816830517e+00,1.059817995363605991e+00
1.590983005070106913e+02,1.501038421020981950e+00,1.058332564509140594e+00
1.594684837753775355e+02,1.560650804270483860e+00,1.050805243804177502e+00
1.598386670437443513e+02,1.622682915950281579e+00,1.037636817762209951e+00
1.602088503121111955e+02,1.685669485570333359e+00,1.019258670697935409e+00
1.605790335804780398e+02,1.747793582639102672e+00,9.961165949837138545e-01
1.609492168488448840e+02,1.806951949927415146e+00,9.686849656206097947e-01
